phase mean FPC1 FPC2 FPC3 FPC4
-10 0.628215 0.07593 -0.51602 -0.254251 0.074412
-9.9 0.61286 0.075863 -0.511925 -0.254058 0.073816
-9.8 0.597506 0.075797 -0.50783 -0.253865 0.073219
-9.7 0.582151 0.075731 -0.503735 -0.253672 0.072623
-9.6 0.566796 0.075553 -0.499128 -0.25308 0.071925
-9.5 0.551441 0.075374 -0.494514 -0.252483 0.071225
-9.4 0.536087 0.075195 -0.4899 -0.251885 0.070525
-9.3 0.522148 0.074906 -0.484782 -0.250895 0.069724
-9.2 0.5083 0.074614 -0.479648 -0.249894 0.06892
-9.1 0.494452 0.074322 -0.474515 -0.248892 0.068117
-9 0.480605 0.073922 -0.468886 -0.247504 0.067214
-8.9 0.466757 0.073517 -0.463233 -0.246097 0.066306
-8.8 0.452909 0.073111 -0.45758 -0.244691 0.065398
-8.7 0.440386 0.0726 -0.45144 -0.242905 0.064393
-8.6 0.428045 0.072082 -0.445268 -0.241094 0.063381
-8.5 0.415705 0.071564 -0.439096 -0.239284 0.062369
-8.4 0.403364 0.070942 -0.432444 -0.237099 0.061261
-8.3 0.391024 0.070311 -0.425753 -0.234884 0.060146
-8.2 0.378683 0.06968 -0.419062 -0.232669 0.05903
-8.1 0.367575 0.068947 -0.411898 -0.230086 0.05782
-8 0.356742 0.068203 -0.404688 -0.227467 0.056601
-7.9 0.345908 0.067459 -0.397477 -0.224847 0.055381
-7.8 0.335075 0.066615 -0.389803 -0.221866 0.054069
-7.7 0.324241 0.065758 -0.382073 -0.218842 0.052745
-7.6 0.313408 0.064901 -0.374343 -0.215818 0.051422
-7.5 0.303716 0.063945 -0.366157 -0.212439 0.050007
-7.4 0.294389 0.062976 -0.357908 -0.209011 0.04858
-7.3 0.285063 0.062006 -0.34966 -0.205582 0.047153
-7.2 0.275736 0.060939 -0.340962 -0.201805 0.045636
-7.1 0.26641 0.059857 -0.332194 -0.197972 0.044104
-7 0.257083 0.058774 -0.323426 -0.194139 0.042573
-6.9 0.248807 0.057596 -0.314217 -0.189963 0.040954
-6.8 0.240988 0.056401 -0.30493 -0.185726 0.039319
-6.7 0.233168 0.055205 -0.295642 -0.181489 0.037684
-6.6 0.225349 0.053916 -0.285922 -0.176915 0.035962
-6.5 0.217529 0.052607 -0.276116 -0.172273 0.034223
-6.4 0.20971 0.051299 -0.266309 -0.167632 0.032484
-6.3 0.202806 0.049898 -0.256077 -0.162659 0.03066
-6.2 0.196426 0.048477 -0.245752 -0.157613 0.028817
-6.1 0.190046 0.047056 -0.235426 -0.152568 0.026974
-6 0.183666 0.045585 -0.224979 -0.147356 0.025118
-5.9 0.177285 0.044102 -0.214501 -0.142105 0.023259
-5.8 0.170905 0.042619 -0.204024 -0.136853 0.0214
-5.7 0.164998 0.041188 -0.194159 -0.131834 0.019703
-5.6 0.15944 0.039772 -0.184458 -0.126877 0.018049
-5.5 0.153882 0.038355 -0.174757 -0.12192 0.016396
-5.4 0.148324 0.036995 -0.165697 -0.117213 0.014911
-5.3 0.142766 0.035652 -0.156825 -0.11258 0.013475
-5.2 0.137208 0.034309 -0.147952 -0.107946 0.012039
-5.1 0.131996 0.033022 -0.139709 -0.103558 0.010768
-5 0.127108 0.031753 -0.131665 -0.099247 0.009551
-4.9 0.122221 0.030484 -0.123622 -0.094937 0.008333
-4.8 0.117334 0.029269 -0.116194 -0.090867 0.007277
-4.7 0.112446 0.028074 -0.10898 -0.08688 0.006277
-4.6 0.107559 0.026878 -0.101765 -0.082893 0.005277
-4.5 0.102976 0.025736 -0.095154 -0.079141 0.004436
-4.4 0.09876 0.024614 -0.088768 -0.075478 0.003654
-4.3 0.094543 0.023493 -0.082383 -0.071814 0.002872
-4.2 0.090326 0.022423 -0.076588 -0.068381 0.002245
-4.1 0.08611 0.021375 -0.071031 -0.06504 0.001681
-4 0.081893 0.020327 -0.065474 -0.0617 0.001117
-3.9 0.07794 0.019331 -0.060496 -0.058585 0.000705
-3.8 0.074394 0.018356 -0.055768 -0.055568 0.000359
-3.7 0.070848 0.017382 -0.05104 -0.052551 1.3e-05
-3.6 0.067302 0.016458 -0.046878 -0.049755 -0.000184
-3.5 0.063756 0.015557 -0.042979 -0.047061 -0.000313
-3.4 0.06021 0.014657 -0.039079 -0.044367 -0.000441
-3.3 0.056888 0.013805 -0.035734 -0.04189 -0.000424
-3.2 0.054013 0.012978 -0.032664 -0.039519 -0.000334
-3.1 0.051138 0.012151 -0.029593 -0.037149 -0.000244
-3 0.048263 0.011373 -0.027064 -0.034989 -1.2e-05
-2.9 0.045388 0.010619 -0.024823 -0.032942 0.000295
-2.8 0.042513 0.009866 -0.022581 -0.030895 0.000603
-2.7 0.039822 0.00916 -0.020868 -0.029054 0.00105
-2.6 0.037617 0.008481 -0.019456 -0.02733 0.001575
-2.5 0.035413 0.007801 -0.018043 -0.025606 0.002101
-2.4 0.033209 0.007168 -0.017147 -0.024084 0.002762
-2.3 0.031005 0.006562 -0.016563 -0.022683 0.003505
-2.2 0.028801 0.005956 -0.015979 -0.021283 0.004249
-2.1 0.026726 0.005395 -0.01583 -0.020063 0.0051
-2 0.025132 0.004862 -0.015962 -0.018961 0.006021
-1.9 0.023537 0.00433 -0.016093 -0.017858 0.006942
-1.8 0.021943 0.003838 -0.016213 -0.016836 0.007813
-1.7 0.020349 0.003375 -0.016325 -0.015867 0.008649
-1.6 0.018754 0.002911 -0.016436 -0.014899 0.009485
-1.5 0.017234 0.002487 -0.016451 -0.01399 0.010242
-1.4 0.016125 0.002092 -0.016396 -0.013123 0.010941
-1.3 0.015016 0.001697 -0.01634 -0.012257 0.01164
-1.2 0.013907 0.001341 -0.016191 -0.011447 0.012263
-1.1 0.012798 0.001014 -0.015969 -0.010683 0.012825
-1 0.011689 0.000687 -0.015747 -0.009918 0.013387
-0.9 0.010623 0.000398 -0.015433 -0.009209 0.013874
-0.8 0.009996 0.00014 -0.015045 -0.008545 0.014299
-0.7 0.009368 -0.000118 -0.014656 -0.007882 0.014724
-0.6 0.008741 -0.00034 -0.014178 -0.007273 0.015076
-0.5 0.008113 -0.00053 -0.013622 -0.006712 0.015364
-0.4 0.007485 -0.00072 -0.013067 -0.00615 0.015653
-0.3 0.006872 -0.000874 -0.012425 -0.005641 0.01587
-0.2 0.006726 -0.000996 -0.011702 -0.005181 0.016021
-0.1 0.00658 -0.001117 -0.01098 -0.004722 0.016172
0 0.006434 -0.001204 -0.010174 -0.004313 0.016254
0.1 0.006288 -0.001258 -0.009284 -0.003955 0.016268
0.2 0.006141 -0.001311 -0.008395 -0.003597 0.016282
0.3 0.005995 -0.00133 -0.007425 -0.003288 0.01623
0.4 0.006316 -0.001315 -0.006369 -0.003031 0.016107
0.5 0.006651 -0.0013 -0.005313 -0.002775 0.015984
0.6 0.006986 -0.001252 -0.004178 -0.002567 0.015796
0.7 0.007321 -0.001168 -0.002955 -0.002412 0.015536
0.8 0.007656 -0.001084 -0.001733 -0.002257 0.015276
0.9 0.007991 -0.000969 -0.000434 -0.002149 0.014954
1 0.008764 -0.000817 0.000956 -0.002095 0.014557
1.1 0.009581 -0.000665 0.002345 -0.002042 0.01416
1.2 0.010397 -0.000483 0.003809 -0.002034 0.013702
1.3 0.011214 -0.000262 0.005365 -0.002083 0.013168
1.4 0.01203 -4.2e-05 0.006921 -0.002131 0.012634
1.5 0.012847 0.000208 0.008549 -0.002223 0.012042
1.6 0.014076 0.000497 0.010272 -0.002373 0.011371
1.7 0.015379 0.000786 0.011995 -0.002524 0.0107
1.8 0.016683 0.001103 0.013784 -0.002713 0.009976
1.9 0.017986 0.001459 0.015668 -0.002959 0.009178
2 0.019289 0.001816 0.017553 -0.003205 0.008379
2.1 0.020592 0.002189 0.019439 -0.003424 0.007639
2.2 0.022409 0.002589 0.02133 -0.003601 0.006985
2.3 0.024365 0.002988 0.02322 -0.003778 0.006332
2.4 0.02632 0.0034 0.025083 -0.003897 0.005786
2.5 0.028276 0.003831 0.026902 -0.003923 0.005413
2.6 0.030231 0.004261 0.028721 -0.003949 0.005039
2.7 0.032187 0.004703 0.030514 -0.003919 0.004769
2.8 0.034676 0.005165 0.032263 -0.003794 0.004676
2.9 0.037365 0.005627 0.034011 -0.003669 0.004583
3 0.040054 0.0061 0.035734 -0.003491 0.004588
3.1 0.042743 0.006593 0.037411 -0.003215 0.004775
3.2 0.045432 0.007085 0.039088 -0.002939 0.004962
3.3 0.048121 0.007589 0.040742 -0.002613 0.005243
3.4 0.051299 0.008113 0.042348 -0.002186 0.00571
3.5 0.054722 0.008637 0.043954 -0.001759 0.006176
3.6 0.058145 0.009171 0.045537 -0.001284 0.006733
3.7 0.061568 0.009726 0.047072 -0.000706 0.00748
3.8 0.06499 0.010281 0.048608 -0.000128 0.008227
3.9 0.068413 0.010845 0.050121 0.000496 0.00906
4 0.072281 0.011432 0.051585 0.001224 0.010087
4.1 0.076437 0.012018 0.053049 0.001953 0.011114
4.2 0.080593 0.012613 0.054493 0.002725 0.012222
4.3 0.084749 0.01323 0.055886 0.003605 0.013529
4.4 0.088906 0.013847 0.057279 0.004484 0.014836
4.5 0.093062 0.014473 0.058653 0.005406 0.01622
4.6 0.097618 0.015121 0.059975 0.006436 0.017807
4.7 0.102508 0.01577 0.061297 0.007466 0.019394
4.8 0.107397 0.016426 0.062601 0.008536 0.021054
4.9 0.112287 0.017106 0.063852 0.009717 0.022921
5 0.117176 0.017785 0.065103 0.010899 0.024788
5.1 0.122066 0.018472 0.066337 0.012117 0.026724
5.2 0.127311 0.019183 0.067517 0.01345 0.028872
5.3 0.132934 0.019893 0.068697 0.014782 0.031019
5.4 0.138557 0.020611 0.069861 0.016149 0.033231
5.5 0.14418 0.021353 0.07097 0.017632 0.035658
5.6 0.149802 0.022094 0.072079 0.019115 0.038085
5.7 0.155425 0.022842 0.073173 0.020631 0.040573
5.8 0.161309 0.023615 0.074211 0.022265 0.04328
5.9 0.167548 0.024388 0.075249 0.023899 0.045987
6 0.173786 0.025161 0.076277 0.025511 0.048729
6.1 0.180025 0.025934 0.077266 0.027039 0.051606
6.2 0.186263 0.026707 0.078254 0.028567 0.054483
6.3 0.192501 0.027472 0.079238 0.030014 0.057365
6.4 0.198789 0.028206 0.080204 0.031106 0.060271
6.5 0.205164 0.02894 0.08117 0.032197 0.063177
6.6 0.211538 0.029668 0.082133 0.033214 0.066088
6.7 0.217913 0.030363 0.083077 0.033868 0.069021
6.8 0.224287 0.031057 0.084021 0.034522 0.071955
6.9 0.230661 0.031746 0.084961 0.035108 0.074893
7 0.237061 0.032401 0.085883 0.035323 0.077855
7.1 0.243519 0.033057 0.086804 0.035539 0.080816
7.2 0.249977 0.033707 0.087723 0.035694 0.083782
7.3 0.256434 0.034323 0.088623 0.035471 0.086771
7.4 0.262892 0.034939 0.089522 0.035249 0.089761
7.5 0.26935 0.035551 0.090419 0.034972 0.092754
7.6 0.275828 0.036128 0.091296 0.034312 0.095771
7.7 0.282369 0.036705 0.092174 0.033652 0.098789
7.8 0.28891 0.037277 0.093048 0.032944 0.101809
7.9 0.295451 0.037815 0.093904 0.031846 0.104855
8 0.301992 0.038353 0.094759 0.030748 0.1079
8.1 0.308533 0.038887 0.095612 0.029608 0.110948
8.2 0.31509 0.039385 0.096445 0.028073 0.114021
8.3 0.321714 0.039884 0.097278 0.026537 0.117094
8.4 0.328338 0.040379 0.098109 0.024966 0.12017
8.5 0.334963 0.040838 0.09892 0.022992 0.123271
8.6 0.341587 0.041297 0.099731 0.021018 0.126372
8.7 0.348212 0.041754 0.10054 0.019016 0.129475
8.8 0.354846 0.042174 0.101328 0.016604 0.132604
8.9 0.361554 0.042594 0.102117 0.014193 0.135733
9 0.368261 0.043012 0.102905 0.011759 0.138863
9.1 0.374969 0.043393 0.103671 0.008909 0.14202
9.2 0.381677 0.043773 0.104437 0.00606 0.145177
9.3 0.388385 0.044153 0.105203 0.003195 0.148335
9.4 0.395097 0.044494 0.105947 -9.3e-05 0.151519
9.5 0.401888 0.044836 0.106691 -0.00338 0.154704
9.6 0.408679 0.045176 0.107435 -0.006677 0.157889
9.7 0.41547 0.045478 0.108157 -0.010402 0.161102
9.8 0.422261 0.045781 0.108879 -0.014128 0.164315
9.9 0.429052 0.046083 0.109601 -0.017855 0.167527
10 0.435843 0.046361 0.110313 -0.021909 0.170662
10.1 0.442355 0.04664 0.111025 -0.025964 0.173797
10.2 0.448866 0.046918 0.111738 -0.030019 0.176932
10.3 0.455378 0.047221 0.112478 -0.034062 0.179661
10.4 0.461889 0.047525 0.113219 -0.038105 0.182386
10.5 0.468401 0.047829 0.11396 -0.042148 0.185111
10.6 0.474912 0.048161 0.114732 -0.046151 0.187409
10.7 0.480821 0.048494 0.115505 -0.050153 0.189696
10.8 0.486691 0.048827 0.116278 -0.054155 0.191983
10.9 0.49256 0.049189 0.117082 -0.058118 0.19385
11 0.49843 0.049551 0.117887 -0.06208 0.195699
11.1 0.5043 0.049914 0.118692 -0.066041 0.197548
11.2 0.51017 0.050304 0.119528 -0.069964 0.198984
11.3 0.515475 0.050696 0.120365 -0.073885 0.200395
11.4 0.520703 0.051088 0.121202 -0.077805 0.201807
11.5 0.525931 0.051507 0.122069 -0.081688 0.202811
11.6 0.531159 0.051928 0.122938 -0.085568 0.203784
11.7 0.536387 0.052349 0.123807 -0.089448 0.204758
11.8 0.541615 0.052797 0.124706 -0.093291 0.205331
11.9 0.546318 0.053248 0.125607 -0.09713 0.205866
12 0.550904 0.053698 0.126508 -0.100969 0.206402
12.1 0.55549 0.054175 0.127438 -0.104772 0.206544
12.2 0.560076 0.054655 0.128371 -0.10857 0.206641
12.3 0.564662 0.055135 0.129305 -0.112369 0.206739
12.4 0.569249 0.055641 0.130266 -0.116132 0.20645
12.5 0.573348 0.056151 0.131232 -0.119889 0.206109
12.6 0.577293 0.05666 0.132197 -0.123647 0.205769
12.7 0.581237 0.057195 0.13319 -0.12737 0.205048
12.8 0.585182 0.057734 0.134188 -0.131087 0.20427
12.9 0.589126 0.058272 0.135185 -0.134804 0.203492
13 0.59307 0.058836 0.13621 -0.138486 0.20234
13.1 0.596567 0.059404 0.137239 -0.142163 0.201124
13.2 0.59987 0.059972 0.138269 -0.145839 0.199908
13.3 0.603172 0.060565 0.139325 -0.149481 0.198325
13.4 0.606475 0.061162 0.140387 -0.153117 0.196671
13.5 0.609777 0.06176 0.141448 -0.156753 0.195017
13.6 0.61308 0.062381 0.142536 -0.160355 0.193003
13.7 0.615996 0.063008 0.14363 -0.16395 0.190911
13.8 0.618691 0.063635 0.144723 -0.167545 0.188819
13.9 0.621386 0.064286 0.145829 -0.171096 0.186382
14 0.624081 0.064943 0.146938 -0.174637 0.183862
14.1 0.626776 0.0656 0.148048 -0.178178 0.181343
14.2 0.629471 0.066284 0.149056 -0.181584 0.178556
14.3 0.631996 0.066976 0.150038 -0.184956 0.1757
14.4 0.634395 0.067668 0.15102 -0.188327 0.172843
14.5 0.636794 0.068388 0.151875 -0.191544 0.169741
14.6 0.639194 0.069117 0.152694 -0.194716 0.16657
14.7 0.641593 0.069845 0.153512 -0.197889 0.163399
14.8 0.643992 0.070601 0.154207 -0.20091 0.159987
14.9 0.646278 0.071366 0.154862 -0.203884 0.156501
15 0.648459 0.072131 0.155518 -0.206858 0.153015
15.1 0.650639 0.072923 0.156052 -0.209683 0.149294
15.2 0.652819 0.073724 0.156544 -0.212458 0.145493
15.3 0.654999 0.074525 0.157037 -0.215234 0.141692
15.4 0.657179 0.075353 0.157409 -0.217863 0.137661
15.5 0.659259 0.076191 0.157739 -0.22044 0.133546
15.6 0.66122 0.077029 0.158068 -0.223016 0.12943
15.7 0.66318 0.077893 0.15828 -0.22545 0.125089
15.8 0.665141 0.078767 0.158447 -0.227828 0.120659
15.9 0.667102 0.079641 0.158613 -0.230206 0.116229
16 0.669063 0.080541 0.158664 -0.232444 0.111577
16.1 0.670937 0.081451 0.158667 -0.234623 0.106833
16.2 0.672679 0.082362 0.15867 -0.236802 0.102088
16.3 0.67442 0.083297 0.158561 -0.238845 0.097126
16.4 0.676162 0.084244 0.158401 -0.240825 0.092067
16.5 0.677903 0.085191 0.158241 -0.242806 0.087008
16.6 0.679645 0.086163 0.157971 -0.244653 0.081736
16.7 0.681313 0.087146 0.157648 -0.246434 0.076362
16.8 0.682836 0.08813 0.157324 -0.248216 0.070988
16.9 0.684358 0.089137 0.156894 -0.249867 0.065407
17 0.68588 0.090157 0.156407 -0.25145 0.059718
17.1 0.687402 0.091177 0.155921 -0.253033 0.054029
17.2 0.688924 0.09222 0.15533 -0.254489 0.048138
17.3 0.690386 0.093277 0.15468 -0.255873 0.042135
17.4 0.691689 0.094333 0.15403 -0.257258 0.036131
17.5 0.692992 0.095412 0.153278 -0.258517 0.02993
17.6 0.694295 0.096505 0.152466 -0.259703 0.023612
17.7 0.695598 0.097598 0.151653 -0.260889 0.017294
17.8 0.696901 0.098712 0.150741 -0.261951 0.010787
17.9 0.698188 0.099841 0.149766 -0.262936 0.004161
18 0.699415 0.100969 0.148792 -0.263922 -0.002465
18.1 0.700643 0.102098 0.147765 -0.264724 -0.009057
18.2 0.70187 0.103227 0.146702 -0.265404 -0.015625
18.3 0.703098 0.104355 0.14564 -0.266084 -0.022193
18.4 0.704325 0.105471 0.144553 -0.266548 -0.028595
18.5 0.705586 0.106577 0.143448 -0.266859 -0.034878
18.6 0.707033 0.107684 0.142344 -0.267169 -0.041161
18.7 0.70848 0.108778 0.141215 -0.267269 -0.047283
18.8 0.709927 0.109862 0.140068 -0.267209 -0.053281
18.9 0.711374 0.110946 0.138921 -0.267149 -0.05928
19 0.712821 0.112018 0.137751 -0.266885 -0.065121
19.1 0.714289 0.113081 0.136562 -0.266456 -0.070834
19.2 0.715965 0.114143 0.135373 -0.266026 -0.076548
19.3 0.71764 0.115193 0.134162 -0.265398 -0.082109
19.4 0.719316 0.116233 0.132931 -0.264598 -0.087537
19.5 0.720992 0.117274 0.131699 -0.263799 -0.092966
19.6 0.722668 0.118302 0.130446 -0.262806 -0.098246
19.7 0.72435 0.11932 0.129173 -0.261637 -0.10339
19.8 0.726255 0.120338 0.1279 -0.260468 -0.108535
19.9 0.72816 0.121345 0.126605 -0.259111 -0.113534
20 0.730064 0.122341 0.125289 -0.257572 -0.118393
20.1 0.731969 0.123337 0.123974 -0.256032 -0.123253
20.2 0.733873 0.124322 0.122638 -0.254311 -0.127971
20.3 0.735778 0.125296 0.12128 -0.252402 -0.132546
20.4 0.737904 0.126269 0.119922 -0.250493 -0.13712
20.5 0.740038 0.127233 0.118544 -0.248407 -0.141558
20.6 0.742171 0.128184 0.117145 -0.246128 -0.145848
20.7 0.744305 0.129136 0.115745 -0.243849 -0.150138
20.8 0.746438 0.130077 0.114325 -0.241399 -0.154295
20.9 0.748571 0.131007 0.112883 -0.23875 -0.1583
21 0.750913 0.131936 0.111441 -0.236101 -0.162305
21.1 0.753275 0.132856 0.10998 -0.233287 -0.166182
21.2 0.755637 0.133764 0.108496 -0.230268 -0.169902
21.3 0.757999 0.134671 0.107012 -0.227249 -0.173622
21.4 0.760361 0.135569 0.10551 -0.224071 -0.177219
21.5 0.762724 0.136454 0.103983 -0.220682 -0.180654
21.6 0.76528 0.13734 0.102457 -0.217294 -0.18409
21.7 0.767872 0.138216 0.100913 -0.213751 -0.187406
21.8 0.770464 0.139079 0.099344 -0.209992 -0.190556
21.9 0.773055 0.139942 0.097776 -0.206234 -0.193707
22 0.775647 0.140797 0.096194 -0.202371 -0.196744
22.1 0.778239 0.141638 0.094593 -0.198352 -0.199613
22.2 0.781028 0.142479 0.092992 -0.194334 -0.202482
22.3 0.783871 0.143311 0.091384 -0.190283 -0.205244
22.4 0.786714 0.14413 0.089765 -0.186181 -0.207837
22.5 0.789557 0.144949 0.088146 -0.182079 -0.210429
22.6 0.7924 0.14576 0.086521 -0.177948 -0.21292
22.7 0.795243 0.146557 0.084885 -0.173766 -0.215236
22.8 0.798276 0.147354 0.08325 -0.169584 -0.217553
22.9 0.801381 0.148143 0.081608 -0.165374 -0.219771
23 0.804485 0.148918 0.079955 -0.161112 -0.221812
23.1 0.80759 0.149693 0.078301 -0.15685 -0.223852
23.2 0.810695 0.15046 0.076643 -0.152561 -0.225799
23.3 0.8138 0.151213 0.074972 -0.148219 -0.227563
23.4 0.817079 0.151966 0.073302 -0.143877 -0.229328
23.5 0.820446 0.152711 0.071626 -0.139509 -0.231002
23.6 0.823813 0.153442 0.069939 -0.135088 -0.23249
23.7 0.827179 0.154173 0.068252 -0.130666 -0.233979
23.8 0.830546 0.154896 0.066559 -0.126219 -0.235381
23.9 0.833913 0.155605 0.064855 -0.121718 -0.236594
24 0.837438 0.156314 0.06315 -0.117216 -0.237806
24.1 0.841067 0.157016 0.06144 -0.112691 -0.238937
24.2 0.844696 0.157702 0.059719 -0.108109 -0.239873
24.3 0.848324 0.158389 0.057997 -0.103527 -0.240809
24.4 0.851953 0.159069 0.05627 -0.098923 -0.241668
24.5 0.855582 0.159733 0.054532 -0.094261 -0.242328
24.6 0.859353 0.160398 0.052793 -0.0896 -0.242988
24.7 0.863243 0.161056 0.051049 -0.084917 -0.243575
24.8 0.867134 0.161699 0.049293 -0.080175 -0.243959
24.9 0.871024 0.162341 0.047537 -0.075434 -0.244344
25 0.874915 0.162978 0.045777 -0.070672 -0.244658
25.1 0.878805 0.163598 0.044004 -0.06585 -0.244766
25.2 0.882823 0.164218 0.042231 -0.061029 -0.244875
25.3 0.886975 0.164833 0.040453 -0.056188 -0.244917
25.4 0.891127 0.165431 0.038663 -0.051287 -0.244749
25.5 0.89528 0.166029 0.036873 -0.046385 -0.244582
25.6 0.899432 0.166623 0.035079 -0.041466 -0.244353
25.7 0.903584 0.167199 0.033271 -0.036484 -0.243908
25.8 0.907844 0.167775 0.031464 -0.031503 -0.243464
25.9 0.912248 0.168345 0.029656 -0.026517 -0.242966
26 0.916653 0.168896 0.027846 -0.021514 -0.242256
26.1 0.921058 0.169447 0.026036 -0.016511 -0.241547
26.2 0.925463 0.16999 0.024236 -0.011548 -0.240795
26.3 0.929867 0.170503 0.022482 -0.006756 -0.239862
26.4 0.93435 0.171015 0.020727 -0.001963 -0.238929
26.5 0.938969 0.171521 0.018984 0.002787 -0.237958
26.6 0.943588 0.171994 0.017292 0.007343 -0.236806
26.7 0.948207 0.172467 0.0156 0.011898 -0.235655
26.8 0.952827 0.172933 0.013917 0.016415 -0.234468
26.9 0.957446 0.173366 0.012288 0.020734 -0.233098
27 0.962128 0.1738 0.010658 0.025052 -0.231728
27.1 0.966958 0.174227 0.009037 0.029335 -0.230326
27.2 0.971787 0.174621 0.007469 0.033416 -0.228738
27.3 0.976616 0.175014 0.005902 0.037497 -0.227149
27.4 0.981445 0.175402 0.004342 0.041547 -0.225532
27.5 0.986274 0.175756 0.002837 0.045391 -0.223725
27.6 0.991155 0.17611 0.001332 0.049235 -0.221918
27.7 0.996194 0.17646 -0.000166 0.053051 -0.220086
27.8 1.001233 0.176774 -0.001609 0.056657 -0.21806
27.9 1.006273 0.177088 -0.003052 0.060264 -0.216035
28 1.011312 0.177398 -0.004489 0.063847 -0.213987
28.1 1.016351 0.177673 -0.005869 0.067216 -0.211743
28.2 1.021429 0.177947 -0.00725 0.070585 -0.209499
28.3 1.026678 0.178219 -0.008626 0.073934 -0.207236
28.4 1.031928 0.178453 -0.009944 0.077066 -0.204774
28.5 1.037177 0.178688 -0.011262 0.080199 -0.202311
28.6 1.042427 0.17892 -0.012576 0.083314 -0.199833
28.7 1.047676 0.179116 -0.013832 0.086209 -0.197152
28.8 1.052951 0.179311 -0.015089 0.089104 -0.194471
28.9 1.058411 0.179504 -0.016341 0.091986 -0.191777
29 1.06387 0.17966 -0.017535 0.094643 -0.188878
29.1 1.06933 0.179815 -0.018729 0.097301 -0.185978
29.2 1.07479 0.179969 -0.01992 0.099949 -0.183069
29.3 1.080249 0.180085 -0.021052 0.10237 -0.179951
29.4 1.085722 0.180201 -0.022183 0.10479 -0.176833
